# CFHT WIRCAM J-band (filter #8101)
# Includes filter and optics transmission, as well as splines 
# through detector QE and mirror reflectivity vs. wavelength
# This version also includes a model for atmospheric transmission with mean airmass = 1.4
#  (roughly appropriate for GOODS-N observations)
# MED 2009 Apr 21
# 
#      lJ   ttotJatm
#
  11470.0   0.00113
  11472.0   0.00123
  11474.0   0.00124
  11476.0   0.00129
  11478.0   0.00133
  11480.0   0.00135
  11482.0   0.00141
  11484.0   0.00147
  11486.0   0.00150
  11488.0   0.00157
  11490.0   0.00163
  11492.0   0.00166
  11494.0   0.00171
  11496.0   0.00175
  11498.0   0.00183
  11500.0   0.00192
  11502.0   0.00201
  11504.0   0.00205
  11506.0   0.00214
  11508.0   0.00226
  11510.0   0.00233
  11512.0   0.00240
  11514.0   0.00251
  11516.0   0.00261
  11518.0   0.00269
  11520.0   0.00280
  11522.0   0.00291
  11524.0   0.00306
  11526.0   0.00317
  11528.0   0.00328
  11530.0   0.00337
  11532.0   0.00349
  11534.0   0.00363
  11536.0   0.00378
  11538.0   0.00396
  11540.0   0.00411
  11542.0   0.00432
  11544.0   0.00450
  11546.0   0.00466
  11548.0   0.00481
  11550.0   0.00504
  11552.0   0.00525
  11554.0   0.00547
  11556.0   0.00569
  11558.0   0.00591
  11560.0   0.00623
  11562.0   0.00656
  11564.0   0.00689
  11566.0   0.00724
  11568.0   0.00756
  11570.0   0.00788
  11572.0   0.00821
  11574.0   0.00856
  11576.0   0.00888
  11578.0   0.00927
  11580.0   0.00967
  11582.0   0.01002
  11584.0   0.01039
  11586.0   0.01078
  11588.0   0.01115
  11590.0   0.01160
  11592.0   0.01202
  11594.0   0.01242
  11596.0   0.01286
  11598.0   0.01333
  11600.0   0.01377
  11602.0   0.01428
  11604.0   0.01478
  11606.0   0.01527
  11608.0   0.01585
  11610.0   0.01642
  11612.0   0.01700
  11614.0   0.01759
  11616.0   0.01828
  11618.0   0.01892
  11620.0   0.01962
  11622.0   0.02031
  11624.0   0.02104
  11626.0   0.02179
  11628.0   0.02252
  11630.0   0.02326
  11632.0   0.02415
  11634.0   0.02503
  11636.0   0.02595
  11638.0   0.02692
  11640.0   0.02787
  11642.0   0.02883
  11644.0   0.02984
  11646.0   0.03092
  11648.0   0.03198
  11650.0   0.03318
  11652.0   0.03442
  11654.0   0.03572
  11656.0   0.03709
  11658.0   0.03851
  11660.0   0.04003
  11662.0   0.04161
  11664.0   0.04329
  11666.0   0.04508
  11668.0   0.04691
  11670.0   0.04886
  11672.0   0.05098
  11674.0   0.05321
  11676.0   0.05557
  11678.0   0.05801
  11680.0   0.06057
  11682.0   0.06325
  11684.0   0.06603
  11686.0   0.06897
  11688.0   0.07201
  11690.0   0.07520
  11692.0   0.07854
  11694.0   0.08209
  11696.0   0.08568
  11698.0   0.08941
  11700.0   0.09337
  11702.0   0.09743
  11704.0   0.10158
  11706.0   0.10590
  11708.0   0.11031
  11710.0   0.11490
  11712.0   0.11956
  11714.0   0.12433
  11716.0   0.12924
  11718.0   0.13420
  11720.0   0.13928
  11722.0   0.14444
  11724.0   0.14965
  11726.0   0.15492
  11728.0   0.16024
  11730.0   0.16565
  11732.0   0.17108
  11734.0   0.17654
  11736.0   0.18208
  11738.0   0.18770
  11740.0   0.19337
  11742.0   0.19915
  11744.0   0.20499
  11746.0   0.21087
  11748.0   0.21680
  11750.0   0.22270
  11752.0   0.22861
  11754.0   0.23452
  11756.0   0.24030
  11758.0   0.24596
  11760.0   0.25159
  11762.0   0.25691
  11764.0   0.26212
  11766.0   0.26718
  11768.0   0.27203
  11770.0   0.27673
  11772.0   0.28136
  11774.0   0.28581
  11776.0   0.29024
  11778.0   0.29466
  11780.0   0.29894
  11782.0   0.30330
  11784.0   0.30752
  11786.0   0.31162
  11788.0   0.31576
  11790.0   0.31974
  11792.0   0.32357
  11794.0   0.32725
  11796.0   0.33076
  11798.0   0.33412
  11800.0   0.33736
  11802.0   0.34027
  11804.0   0.34299
  11806.0   0.34546
  11808.0   0.34764
  11810.0   0.34966
  11812.0   0.35157
  11814.0   0.35335
  11816.0   0.35518
  11818.0   0.35711
  11820.0   0.35884
  11822.0   0.36088
  11824.0   0.36288
  11826.0   0.36494
  11828.0   0.36700
  11830.0   0.36894
  11832.0   0.37073
  11834.0   0.37239
  11836.0   0.37386
  11838.0   0.37524
  11840.0   0.37651
  11842.0   0.37769
  11844.0   0.37877
  11846.0   0.37987
  11848.0   0.38096
  11850.0   0.38202
  11852.0   0.38321
  11854.0   0.38438
  11856.0   0.38538
  11858.0   0.38629
  11860.0   0.38715
  11862.0   0.38765
  11864.0   0.38810
  11866.0   0.38835
  11868.0   0.38837
  11870.0   0.38831
  11872.0   0.38813
  11874.0   0.38787
  11876.0   0.38772
  11878.0   0.38770
  11880.0   0.38764
  11882.0   0.38788
  11884.0   0.38815
  11886.0   0.38845
  11888.0   0.38895
  11890.0   0.38941
  11892.0   0.38994
  11894.0   0.39037
  11896.0   0.39074
  11898.0   0.39098
  11900.0   0.39118
  11902.0   0.39127
  11904.0   0.39129
  11906.0   0.39124
  11908.0   0.39115
  11910.0   0.39101
  11912.0   0.39078
  11914.0   0.39057
  11916.0   0.39033
  11918.0   0.39010
  11920.0   0.38991
  11922.0   0.38961
  11924.0   0.38935
  11926.0   0.38914
  11928.0   0.38876
  11930.0   0.38847
  11932.0   0.38826
  11934.0   0.38799
  11936.0   0.38781
  11938.0   0.38769
  11940.0   0.38752
  11942.0   0.38751
  11944.0   0.38757
  11946.0   0.38763
  11948.0   0.38776
  11950.0   0.38784
  11952.0   0.38799
  11954.0   0.38818
  11956.0   0.38836
  11958.0   0.38852
  11960.0   0.38877
  11962.0   0.38897
  11964.0   0.38917
  11966.0   0.38930
  11968.0   0.38936
  11970.0   0.38953
  11972.0   0.38979
  11974.0   0.39015
  11976.0   0.39052
  11978.0   0.39089
  11980.0   0.39126
  11982.0   0.39182
  11984.0   0.39230
  11986.0   0.39284
  11988.0   0.39348
  11990.0   0.39410
  11992.0   0.39483
  11994.0   0.39559
  11996.0   0.39627
  11998.0   0.39701
  12000.0   0.39780
  12002.0   0.39843
  12004.0   0.39913
  12006.0   0.39970
  12008.0   0.40018
  12010.0   0.40066
  12012.0   0.40102
  12014.0   0.40136
  12016.0   0.40161
  12018.0   0.40176
  12020.0   0.40179
  12022.0   0.40164
  12024.0   0.40149
  12026.0   0.40110
  12028.0   0.40051
  12030.0   0.39990
  12032.0   0.39929
  12034.0   0.39859
  12036.0   0.39808
  12038.0   0.39770
  12040.0   0.39730
  12042.0   0.39735
  12044.0   0.39744
  12046.0   0.39763
  12048.0   0.39807
  12050.0   0.39847
  12052.0   0.39903
  12054.0   0.39951
  12056.0   0.39998
  12058.0   0.40031
  12060.0   0.40064
  12062.0   0.40072
  12064.0   0.40076
  12066.0   0.40079
  12068.0   0.40062
  12070.0   0.40046
  12072.0   0.40020
  12074.0   0.39994
  12076.0   0.39965
  12078.0   0.39934
  12080.0   0.39903
  12082.0   0.39866
  12084.0   0.39828
  12086.0   0.39790
  12088.0   0.39750
  12090.0   0.39715
  12092.0   0.39689
  12094.0   0.39659
  12096.0   0.39635
  12098.0   0.39608
  12100.0   0.39587
  12102.0   0.39570
  12104.0   0.39560
  12106.0   0.39546
  12108.0   0.39534
  12110.0   0.39525
  12112.0   0.39522
  12114.0   0.39519
  12116.0   0.39517
  12118.0   0.39529
  12120.0   0.39537
  12122.0   0.39549
  12124.0   0.39562
  12126.0   0.39580
  12128.0   0.39595
  12130.0   0.39613
  12132.0   0.39622
  12134.0   0.39633
  12136.0   0.39643
  12138.0   0.39653
  12140.0   0.39664
  12142.0   0.39672
  12144.0   0.39678
  12146.0   0.39691
  12148.0   0.39707
  12150.0   0.39723
  12152.0   0.39744
  12154.0   0.39774
  12156.0   0.39802
  12158.0   0.39830
  12160.0   0.39861
  12162.0   0.39892
  12164.0   0.39922
  12166.0   0.39952
  12168.0   0.39973
  12170.0   0.39993
  12172.0   0.40006
  12174.0   0.40022
  12176.0   0.40037
  12178.0   0.40045
  12180.0   0.40053
  12182.0   0.40060
  12184.0   0.40069
  12186.0   0.40079
  12188.0   0.40089
  12190.0   0.40107
  12192.0   0.40126
  12194.0   0.40140
  12196.0   0.40162
  12198.0   0.40181
  12200.0   0.40204
  12202.0   0.40229
  12204.0   0.40259
  12206.0   0.40284
  12208.0   0.40301
  12210.0   0.40323
  12212.0   0.40336
  12214.0   0.40345
  12216.0   0.40359
  12218.0   0.40366
  12220.0   0.40379
  12222.0   0.40389
  12224.0   0.40398
  12226.0   0.40413
  12228.0   0.40425
  12230.0   0.40447
  12232.0   0.40469
  12234.0   0.40493
  12236.0   0.40512
  12238.0   0.40531
  12240.0   0.40556
  12242.0   0.40577
  12244.0   0.40606
  12246.0   0.40632
  12248.0   0.40657
  12250.0   0.40680
  12252.0   0.40701
  12254.0   0.40721
  12256.0   0.40739
  12258.0   0.40760
  12260.0   0.40776
  12262.0   0.40787
  12264.0   0.40800
  12266.0   0.40809
  12268.0   0.40821
  12270.0   0.40835
  12272.0   0.40845
  12274.0   0.40860
  12276.0   0.40873
  12278.0   0.40888
  12280.0   0.40903
  12282.0   0.40918
  12284.0   0.40934
  12286.0   0.40947
  12288.0   0.40957
  12290.0   0.40963
  12292.0   0.40974
  12294.0   0.40979
  12296.0   0.40984
  12298.0   0.40996
  12300.0   0.41002
  12302.0   0.41014
  12304.0   0.41028
  12306.0   0.41041
  12308.0   0.41052
  12310.0   0.41062
  12312.0   0.41072
  12314.0   0.41082
  12316.0   0.41091
  12318.0   0.41097
  12320.0   0.41105
  12322.0   0.41113
  12324.0   0.41120
  12326.0   0.41131
  12328.0   0.41144
  12330.0   0.41148
  12332.0   0.41160
  12334.0   0.41172
  12336.0   0.41186
  12338.0   0.41198
  12340.0   0.41209
  12342.0   0.41218
  12344.0   0.41231
  12346.0   0.41240
  12348.0   0.41250
  12350.0   0.41264
  12352.0   0.41274
  12354.0   0.41280
  12356.0   0.41284
  12358.0   0.41293
  12360.0   0.41303
  12362.0   0.41310
  12364.0   0.41314
  12366.0   0.41319
  12368.0   0.41320
  12370.0   0.41322
  12372.0   0.41327
  12374.0   0.41332
  12376.0   0.41331
  12378.0   0.41335
  12380.0   0.41335
  12382.0   0.41332
  12384.0   0.41333
  12386.0   0.41329
  12388.0   0.41329
  12390.0   0.41327
  12392.0   0.41320
  12394.0   0.41315
  12396.0   0.41310
  12398.0   0.41303
  12400.0   0.41296
  12402.0   0.41288
  12404.0   0.41281
  12406.0   0.41272
  12408.0   0.41270
  12410.0   0.41263
  12412.0   0.41259
  12414.0   0.41257
  12416.0   0.41255
  12418.0   0.41257
  12420.0   0.41256
  12422.0   0.41252
  12424.0   0.41249
  12426.0   0.41250
  12428.0   0.41247
  12430.0   0.41244
  12432.0   0.41242
  12434.0   0.41239
  12436.0   0.41232
  12438.0   0.41228
  12440.0   0.41221
  12442.0   0.41215
  12444.0   0.41210
  12446.0   0.41201
  12448.0   0.41191
  12450.0   0.41182
  12452.0   0.41172
  12454.0   0.41158
  12456.0   0.41150
  12458.0   0.41136
  12460.0   0.41122
  12462.0   0.41111
  12464.0   0.41099
  12466.0   0.41087
  12468.0   0.41074
  12470.0   0.41057
  12472.0   0.41045
  12474.0   0.41034
  12476.0   0.41019
  12478.0   0.41008
  12480.0   0.40994
  12482.0   0.40975
  12484.0   0.40962
  12486.0   0.40948
  12488.0   0.40930
  12490.0   0.40919
  12492.0   0.40911
  12494.0   0.40892
  12496.0   0.40878
  12498.0   0.40867
  12500.0   0.40851
  12502.0   0.40840
  12504.0   0.40828
  12506.0   0.40819
  12508.0   0.40811
  12510.0   0.40802
  12512.0   0.40798
  12514.0   0.40793
  12516.0   0.40786
  12518.0   0.40778
  12520.0   0.40771
  12522.0   0.40760
  12524.0   0.40750
  12526.0   0.40738
  12528.0   0.40729
  12530.0   0.40715
  12532.0   0.40709
  12534.0   0.40698
  12536.0   0.40682
  12538.0   0.40663
  12540.0   0.40651
  12542.0   0.40640
  12544.0   0.40622
  12546.0   0.40608
  12548.0   0.40596
  12550.0   0.40588
  12552.0   0.40576
  12554.0   0.40569
  12556.0   0.40565
  12558.0   0.40561
  12560.0   0.40555
  12562.0   0.40550
  12564.0   0.40547
  12566.0   0.40543
  12568.0   0.40535
  12570.0   0.40536
  12572.0   0.40532
  12574.0   0.40527
  12576.0   0.40524
  12578.0   0.40514
  12580.0   0.40506
  12582.0   0.40494
  12584.0   0.40481
  12586.0   0.40466
  12588.0   0.40436
  12590.0   0.40417
  12592.0   0.40385
  12594.0   0.40356
  12596.0   0.40316
  12598.0   0.40278
  12600.0   0.40245
  12602.0   0.40193
  12604.0   0.40142
  12606.0   0.40080
  12608.0   0.40019
  12610.0   0.39967
  12612.0   0.39906
  12614.0   0.39848
  12616.0   0.39785
  12618.0   0.39718
  12620.0   0.39653
  12622.0   0.39589
  12624.0   0.39526
  12626.0   0.39465
  12628.0   0.39410
  12630.0   0.39355
  12632.0   0.39311
  12634.0   0.39267
  12636.0   0.39233
  12638.0   0.39207
  12640.0   0.39178
  12642.0   0.39155
  12644.0   0.39134
  12646.0   0.39113
  12648.0   0.39097
  12650.0   0.39075
  12652.0   0.39069
  12654.0   0.39055
  12656.0   0.39045
  12658.0   0.39032
  12660.0   0.39022
  12662.0   0.38987
  12664.0   0.38946
  12666.0   0.38881
  12668.0   0.38783
  12670.0   0.38686
  12672.0   0.38515
  12674.0   0.38338
  12676.0   0.38135
  12678.0   0.37905
  12680.0   0.37677
  12682.0   0.37500
  12684.0   0.37322
  12686.0   0.37211
  12688.0   0.37190
  12690.0   0.37166
  12692.0   0.37321
  12694.0   0.37492
  12696.0   0.37718
  12698.0   0.38007
  12700.0   0.38293
  12702.0   0.38568
  12704.0   0.38844
  12706.0   0.39083
  12708.0   0.39268
  12710.0   0.39454
  12712.0   0.39549
  12714.0   0.39633
  12716.0   0.39687
  12718.0   0.39703
  12720.0   0.39718
  12722.0   0.39709
  12724.0   0.39689
  12726.0   0.39670
  12728.0   0.39644
  12730.0   0.39626
  12732.0   0.39610
  12734.0   0.39596
  12736.0   0.39586
  12738.0   0.39584
  12740.0   0.39588
  12742.0   0.39605
  12744.0   0.39619
  12746.0   0.39645
  12748.0   0.39668
  12750.0   0.39692
  12752.0   0.39711
  12754.0   0.39728
  12756.0   0.39752
  12758.0   0.39767
  12760.0   0.39780
  12762.0   0.39786
  12764.0   0.39790
  12766.0   0.39797
  12768.0   0.39804
  12770.0   0.39808
  12772.0   0.39813
  12774.0   0.39824
  12776.0   0.39835
  12778.0   0.39837
  12780.0   0.39844
  12782.0   0.39851
  12784.0   0.39864
  12786.0   0.39875
  12788.0   0.39883
  12790.0   0.39892
  12792.0   0.39900
  12794.0   0.39910
  12796.0   0.39920
  12798.0   0.39926
  12800.0   0.39935
  12802.0   0.39944
  12804.0   0.39954
  12806.0   0.39958
  12808.0   0.39969
  12810.0   0.39981
  12812.0   0.39992
  12814.0   0.40000
  12816.0   0.40011
  12818.0   0.40019
  12820.0   0.40027
  12822.0   0.40032
  12824.0   0.40036
  12826.0   0.40032
  12828.0   0.40031
  12830.0   0.40031
  12832.0   0.40026
  12834.0   0.40024
  12836.0   0.40021
  12838.0   0.40019
  12840.0   0.40014
  12842.0   0.40013
  12844.0   0.40009
  12846.0   0.40007
  12848.0   0.40003
  12850.0   0.40001
  12852.0   0.40000
  12854.0   0.40001
  12856.0   0.40003
  12858.0   0.40005
  12860.0   0.40003
  12862.0   0.39998
  12864.0   0.39993
  12866.0   0.39983
  12868.0   0.39972
  12870.0   0.39962
  12872.0   0.39941
  12874.0   0.39922
  12876.0   0.39902
  12878.0   0.39885
  12880.0   0.39854
  12882.0   0.39831
  12884.0   0.39805
  12886.0   0.39782
  12888.0   0.39763
  12890.0   0.39748
  12892.0   0.39738
  12894.0   0.39727
  12896.0   0.39722
  12898.0   0.39715
  12900.0   0.39705
  12902.0   0.39692
  12904.0   0.39679
  12906.0   0.39661
  12908.0   0.39638
  12910.0   0.39613
  12912.0   0.39599
  12914.0   0.39581
  12916.0   0.39564
  12918.0   0.39555
  12920.0   0.39547
  12922.0   0.39545
  12924.0   0.39547
  12926.0   0.39554
  12928.0   0.39553
  12930.0   0.39559
  12932.0   0.39562
  12934.0   0.39555
  12936.0   0.39548
  12938.0   0.39532
  12940.0   0.39523
  12942.0   0.39502
  12944.0   0.39478
  12946.0   0.39443
  12948.0   0.39407
  12950.0   0.39372
  12952.0   0.39327
  12954.0   0.39282
  12956.0   0.39235
  12958.0   0.39180
  12960.0   0.39133
  12962.0   0.39075
  12964.0   0.39021
  12966.0   0.38971
  12968.0   0.38925
  12970.0   0.38879
  12972.0   0.38846
  12974.0   0.38813
  12976.0   0.38786
  12978.0   0.38774
  12980.0   0.38761
  12982.0   0.38748
  12984.0   0.38744
  12986.0   0.38727
  12988.0   0.38711
  12990.0   0.38694
  12992.0   0.38664
  12994.0   0.38633
  12996.0   0.38602
  12998.0   0.38572
  13000.0   0.38539
  13002.0   0.38520
  13004.0   0.38498
  13006.0   0.38481
  13008.0   0.38473
  13010.0   0.38470
  13012.0   0.38467
  13014.0   0.38465
  13016.0   0.38449
  13018.0   0.38426
  13020.0   0.38401
  13022.0   0.38340
  13024.0   0.38280
  13026.0   0.38209
  13028.0   0.38116
  13030.0   0.38020
  13032.0   0.37927
  13034.0   0.37828
  13036.0   0.37747
  13038.0   0.37680
  13040.0   0.37616
  13042.0   0.37583
  13044.0   0.37561
  13046.0   0.37541
  13048.0   0.37541
  13050.0   0.37544
  13052.0   0.37534
  13054.0   0.37530
  13056.0   0.37511
  13058.0   0.37470
  13060.0   0.37430
  13062.0   0.37379
  13064.0   0.37321
  13066.0   0.37269
  13068.0   0.37220
  13070.0   0.37169
  13072.0   0.37138
  13074.0   0.37109
  13076.0   0.37077
  13078.0   0.37052
  13080.0   0.37025
  13082.0   0.36979
  13084.0   0.36934
  13086.0   0.36878
  13088.0   0.36802
  13090.0   0.36733
  13092.0   0.36657
  13094.0   0.36576
  13096.0   0.36515
  13098.0   0.36481
  13100.0   0.36444
  13102.0   0.36481
  13104.0   0.36521
  13106.0   0.36582
  13108.0   0.36683
  13110.0   0.36783
  13112.0   0.36870
  13114.0   0.36956
  13116.0   0.37009
  13118.0   0.37017
  13120.0   0.37028
  13122.0   0.36952
  13124.0   0.36870
  13126.0   0.36769
  13128.0   0.36639
  13130.0   0.36508
  13132.0   0.36391
  13134.0   0.36273
  13136.0   0.36186
  13138.0   0.36138
  13140.0   0.36089
  13142.0   0.36109
  13144.0   0.36139
  13146.0   0.36190
  13148.0   0.36269
  13150.0   0.36347
  13152.0   0.36436
  13154.0   0.36522
  13156.0   0.36598
  13158.0   0.36660
  13160.0   0.36724
  13162.0   0.36748
  13164.0   0.36776
  13166.0   0.36792
  13168.0   0.36787
  13170.0   0.36792
  13172.0   0.36759
  13174.0   0.36724
  13176.0   0.36672
  13178.0   0.36596
  13180.0   0.36522
  13182.0   0.36395
  13184.0   0.36259
  13186.0   0.36106
  13188.0   0.35929
  13190.0   0.35749
  13192.0   0.35552
  13194.0   0.35360
  13196.0   0.35174
  13198.0   0.35014
  13200.0   0.34851
  13202.0   0.34755
  13204.0   0.34667
  13206.0   0.34605
  13208.0   0.34594
  13210.0   0.34573
  13212.0   0.34591
  13214.0   0.34611
  13216.0   0.34623
  13218.0   0.34632
  13220.0   0.34628
  13222.0   0.34602
  13224.0   0.34565
  13226.0   0.34519
  13228.0   0.34464
  13230.0   0.34400
  13232.0   0.34342
  13234.0   0.34271
  13236.0   0.34198
  13238.0   0.34132
  13240.0   0.34053
  13242.0   0.33968
  13244.0   0.33871
  13246.0   0.33749
  13248.0   0.33597
  13250.0   0.33439
  13252.0   0.33217
  13254.0   0.32984
  13256.0   0.32715
  13258.0   0.32396
  13260.0   0.32068
  13262.0   0.31686
  13264.0   0.31288
  13266.0   0.30867
  13268.0   0.30423
  13270.0   0.29970
  13272.0   0.29496
  13274.0   0.29013
  13276.0   0.28540
  13278.0   0.28073
  13280.0   0.27603
  13282.0   0.27181
  13284.0   0.26758
  13286.0   0.26358
  13288.0   0.25995
  13290.0   0.25629
  13292.0   0.25285
  13294.0   0.24932
  13296.0   0.24563
  13298.0   0.24174
  13300.0   0.23773
  13302.0   0.23304
  13304.0   0.22832
  13306.0   0.22332
  13308.0   0.21807
  13310.0   0.21284
  13312.0   0.20779
  13314.0   0.20272
  13316.0   0.19800
  13318.0   0.19365
  13320.0   0.18930
  13322.0   0.18568
  13324.0   0.18212
  13326.0   0.17873
  13328.0   0.17561
  13330.0   0.17239
  13332.0   0.16946
  13334.0   0.16649
  13336.0   0.16348
  13338.0   0.16059
  13340.0   0.15762
  13342.0   0.15471
  13344.0   0.15173
  13346.0   0.14871
  13348.0   0.14551
  13350.0   0.14235
  13352.0   0.13889
  13354.0   0.13536
  13356.0   0.13167
  13358.0   0.12775
  13360.0   0.12386
  13362.0   0.11987
  13364.0   0.11581
  13366.0   0.11188
  13368.0   0.10811
  13370.0   0.10440
  13372.0   0.10108
  13374.0   0.09769
  13376.0   0.09457
  13378.0   0.09172
  13380.0   0.08899
  13382.0   0.08637
  13384.0   0.08385
  13386.0   0.08128
  13388.0   0.07868
  13390.0   0.07619
  13392.0   0.07347
  13394.0   0.07082
  13396.0   0.06821
  13398.0   0.06561
  13400.0   0.06303
  13402.0   0.06061
  13404.0   0.05828
  13406.0   0.05610
  13408.0   0.05414
  13410.0   0.05215
  13412.0   0.05030
  13414.0   0.04856
  13416.0   0.04680
  13418.0   0.04513
  13420.0   0.04344
  13422.0   0.04167
  13424.0   0.03997
  13426.0   0.03819
  13428.0   0.03635
  13430.0   0.03460
  13432.0   0.03282
